INDEX VERSION 1.134+C:\Users\srikanth_aramandla\Downloads\HappyFaces-smks\HappyFaces-smk\.metadata\.plugins\org.eclipse.jdt.core
1728642572.index
3690037726.index
3796262921.index
2157685270.index
875811364.index
851234997.index
2487895255.index
2388198611.index
1942060008.index
1794965050.index
276520940.index
2561606418.index
2444490085.index
4102811739.index
1802271036.index
1962771105.index
2292855374.index
3476936595.index
3648261792.index
3422928494.index
3745090590.index
2069961799.index
1907375882.index
656015877.index
1789468315.index
2482496826.index
570245811.index
3166238208.index
3967711712.index
3110716382.index
1838451035.index
2480476579.index
1570311577.index
3709499005.index
3239373071.index
722059342.index
1502180137.index
3686815354.index
285199728.index
3248281196.index
3772072522.index
1340926593.index
1786928651.index
2212901498.index
1695052316.index
1413532365.index
766987814.index
2400319760.index
3920534681.index
539017159.index
3954033033.index
1791977203.index
782518784.index
2809523720.index
2210382705.index
1071998545.index
233038832.index
2835502221.index
1207995352.index
489293811.index
2389300550.index
1754285969.index
566980242.index
3951297946.index
2392434685.index
1402247171.index
359022637.index
3955321227.index
1865797976.index
4050478341.index
4232531747.index
3356176278.index
646317810.index
1192122454.index
2771508660.index
2602283616.index
1363079849.index
3054769552.index
3976668557.index
403983234.index
2031415819.index
2128554413.index
1081379176.index
505964005.index
220063161.index
1560965602.index
1094301442.index
3232351566.index
899238385.index
628274730.index
3913261608.index
25511480.index
2376497623.index
401872649.index
1835128578.index
499242948.index
3402083249.index
1809999939.index
634907115.index
2295419187.index
657044658.index
2957982842.index
455836438.index
699498143.index
2942165867.index
4040545032.index
3830287553.index
317793124.index
360114404.index
